#    s        x        y     Ue/Vinf    Dstar     Theta      Cf       H
   0.00000  1.00000  0.00126  0.76500  0.000000  0.000000  0.000000     1.000
   0.00634  0.99372  0.00214  0.86298  0.000000  0.000000  0.000000     1.000
   0.01739  0.98277  0.00365  0.89693  0.000000  0.000000  0.000000     1.000
   0.03029  0.96999  0.00539  0.92114  0.000000  0.000000  0.000000     1.000
   0.04475  0.95567  0.00731  0.93918  0.000000  0.000000  0.000000     1.000
   0.06028  0.94026  0.00934  0.95373  0.000000  0.000000  0.000000     1.000
   0.07646  0.92422  0.01142  0.96602  0.000000  0.000000  0.000000     1.000
   0.09297  0.90784  0.01350  0.97648  0.000000  0.000000  0.000000     1.000
   0.10966  0.89128  0.01556  0.98563  0.000000  0.000000  0.000000     1.000
   0.12644  0.87462  0.01759  0.99372  0.000000  0.000000  0.000000     1.000
   0.14325  0.85793  0.01959  1.00127  0.000000  0.000000  0.000000     1.000
   0.16009  0.84120  0.02155  1.00795  0.000000  0.000000  0.000000     1.000
   0.17694  0.82446  0.02348  1.01429  0.000000  0.000000  0.000000     1.000
   0.19380  0.80771  0.02537  1.02021  0.000000  0.000000  0.000000     1.000
   0.21066  0.79095  0.02723  1.02574  0.000000  0.000000  0.000000     1.000
   0.22752  0.77419  0.02905  1.03122  0.000000  0.000000  0.000000     1.000
   0.24438  0.75742  0.03083  1.03626  0.000000  0.000000  0.000000     1.000
   0.26124  0.74066  0.03257  1.04121  0.000000  0.000000  0.000000     1.000
   0.27810  0.72389  0.03428  1.04610  0.000000  0.000000  0.000000     1.000
   0.29495  0.70712  0.03594  1.05069  0.000000  0.000000  0.000000     1.000
   0.31179  0.69035  0.03757  1.05532  0.000000  0.000000  0.000000     1.000
   0.32863  0.67359  0.03916  1.05988  0.000000  0.000000  0.000000     1.000
   0.34546  0.65683  0.04071  1.06426  0.000000  0.000000  0.000000     1.000
   0.36228  0.64008  0.04221  1.06873  0.000000  0.000000  0.000000     1.000
   0.37909  0.62333  0.04367  1.07314  0.000000  0.000000  0.000000     1.000
   0.39589  0.60659  0.04509  1.07742  0.000000  0.000000  0.000000     1.000
   0.41267  0.58987  0.04646  1.08175  0.000000  0.000000  0.000000     1.000
   0.42944  0.57315  0.04778  1.08609  0.000000  0.000000  0.000000     1.000
   0.44619  0.55645  0.04905  1.09033  0.000000  0.000000  0.000000     1.000
   0.46292  0.53976  0.05026  1.09467  0.000000  0.000000  0.000000     1.000
   0.47963  0.52309  0.05143  1.09898  0.000000  0.000000  0.000000     1.000
   0.49632  0.50644  0.05253  1.10326  0.000000  0.000000  0.000000     1.000
   0.51299  0.48980  0.05357  1.10763  0.000000  0.000000  0.000000     1.000
   0.52963  0.47319  0.05455  1.11180  0.000000  0.000000  0.000000     1.000
   0.54624  0.45660  0.05546  1.11624  0.000000  0.000000  0.000000     1.000
   0.56282  0.44004  0.05630  1.12044  0.000000  0.000000  0.000000     1.000
   0.57937  0.42351  0.05707  1.12481  0.000000  0.000000  0.000000     1.000
   0.59589  0.40701  0.05776  1.12902  0.000000  0.000000  0.000000     1.000
   0.61236  0.39055  0.05837  1.13336  0.000000  0.000000  0.000000     1.000
   0.62880  0.37412  0.05889  1.13758  0.000000  0.000000  0.000000     1.000
   0.64519  0.35774  0.05932  1.14175  0.000000  0.000000  0.000000     1.000
   0.66153  0.34140  0.05965  1.14600  0.000000  0.000000  0.000000     1.000
   0.67782  0.32511  0.05988  1.15010  0.000000  0.000000  0.000000     1.000
   0.69405  0.30888  0.06000  1.15417  0.000000  0.000000  0.000000     1.000
   0.71022  0.29272  0.06001  1.15821  0.000000  0.000000  0.000000     1.000
   0.72631  0.27662  0.05989  1.16205  0.000000  0.000000  0.000000     1.000
   0.74233  0.26060  0.05965  1.16586  0.000000  0.000000  0.000000     1.000
   0.75827  0.24467  0.05927  1.16951  0.000000  0.000000  0.000000     1.000
   0.77411  0.22884  0.05875  1.17299  0.000000  0.000000  0.000000     1.000
   0.78983  0.21313  0.05807  1.17616  0.000000  0.000000  0.000000     1.000
   0.80543  0.19755  0.05723  1.17937  0.000000  0.000000  0.000000     1.000
   0.82087  0.18214  0.05622  1.18203  0.000000  0.000000  0.000000     1.000
   0.83613  0.16693  0.05503  1.18448  0.000000  0.000000  0.000000     1.000
   0.85117  0.15196  0.05365  1.18639  0.000000  0.000000  0.000000     1.000
   0.86591  0.13730  0.05207  1.18787  0.000000  0.000000  0.000000     1.000
   0.88029  0.12303  0.05029  1.18871  0.000000  0.000000  0.000000     1.000
   0.89417  0.10929  0.04832  1.18870  0.000000  0.000000  0.000000     1.000
   0.90742  0.09622  0.04618  1.18772  0.000000  0.000000  0.000000     1.000
   0.91986  0.08399  0.04389  1.18567  0.000000  0.000000  0.000000     1.000
   0.93132  0.07278  0.04150  1.18225  0.000000  0.000000  0.000000     1.000
   0.94168  0.06271  0.03908  1.17735  0.000000  0.000000  0.000000     1.000
   0.95091  0.05380  0.03667  1.17065  0.000000  0.000000  0.000000     1.000
   0.95903  0.04603  0.03431  1.16237  0.000000  0.000000  0.000000     1.000
   0.96614  0.03929  0.03203  1.15179  0.000000  0.000000  0.000000     1.000
   0.97238  0.03346  0.02983  1.13960  0.000000  0.000000  0.000000     1.000
   0.97787  0.02840  0.02771  1.12423  0.000000  0.000000  0.000000     1.000
   0.98273  0.02399  0.02566  1.10638  0.000000  0.000000  0.000000     1.000
   0.98707  0.02013  0.02367  1.08444  0.000000  0.000000  0.000000     1.000
   0.99097  0.01674  0.02173  1.05865  0.000000  0.000000  0.000000     1.000
   0.99451  0.01376  0.01982  1.02707  0.000000  0.000000  0.000000     1.000
   0.99774  0.01114  0.01793  0.98931  0.000000  0.000000  0.000000     1.000
   1.00071  0.00883  0.01606  0.94227  0.000000  0.000000  0.000000     1.000
   1.00346  0.00682  0.01419  0.88604  0.000000  0.000000  0.000000     1.000
   1.00603  0.00508  0.01231  0.81654  0.000000  0.000000  0.000000     1.000
   1.00843  0.00360  0.01041  0.73144  0.000000  0.000000  0.000000     1.000
   1.01069  0.00238  0.00851  0.63036  0.000000  0.000000  0.000000     1.000
   1.01284  0.00141  0.00659  0.51045  0.000000  0.000000  0.000000     1.000
   1.01488  0.00070  0.00467  0.37447  0.000000  0.000000  0.000000     1.000
   1.01683  0.00025  0.00277  0.22734  0.000000  0.000000  0.000000     1.000
   1.01871  0.00003  0.00091  0.07519  0.000000  0.000000  0.000000     1.000
   1.02053  0.00003 -0.00091 -0.07494  0.000000  0.000000  0.000000     1.000
   1.02241  0.00025 -0.00277 -0.22780  0.000000  0.000000  0.000000     1.000
   1.02436  0.00070 -0.00467 -0.37435  0.000000  0.000000  0.000000     1.000
   1.02641  0.00141 -0.00659 -0.51079  0.000000  0.000000  0.000000     1.000
   1.02855  0.00238 -0.00851 -0.62989  0.000000  0.000000  0.000000     1.000
   1.03081  0.00360 -0.01041 -0.73163  0.000000  0.000000  0.000000     1.000
   1.03322  0.00508 -0.01231 -0.81626  0.000000  0.000000  0.000000     1.000
   1.03578  0.00682 -0.01419 -0.88592  0.000000  0.000000  0.000000     1.000
   1.03853  0.00883 -0.01606 -0.94256  0.000000  0.000000  0.000000     1.000
   1.04150  0.01114 -0.01793 -0.98881  0.000000  0.000000  0.000000     1.000
   1.04473  0.01376 -0.01982 -1.02754  0.000000  0.000000  0.000000     1.000
   1.04827  0.01674 -0.02173 -1.05835  0.000000  0.000000  0.000000     1.000
   1.05217  0.02013 -0.02367 -1.08468  0.000000  0.000000  0.000000     1.000
   1.05651  0.02399 -0.02566 -1.10611  0.000000  0.000000  0.000000     1.000
   1.06138  0.02840 -0.02771 -1.12430  0.000000  0.000000  0.000000     1.000
   1.06687  0.03346 -0.02983 -1.13953  0.000000  0.000000  0.000000     1.000
   1.07310  0.03929 -0.03203 -1.15186  0.000000  0.000000  0.000000     1.000
   1.08022  0.04603 -0.03431 -1.16235  0.000000  0.000000  0.000000     1.000
   1.08834  0.05380 -0.03667 -1.17070  0.000000  0.000000  0.000000     1.000
   1.09756  0.06271 -0.03908 -1.17721  0.000000  0.000000  0.000000     1.000
   1.10792  0.07278 -0.04150 -1.18234  0.000000  0.000000  0.000000     1.000
   1.11939  0.08399 -0.04389 -1.18561  0.000000  0.000000  0.000000     1.000
   1.13182  0.09622 -0.04618 -1.18776  0.000000  0.000000  0.000000     1.000
   1.14507  0.10929 -0.04832 -1.18871  0.000000  0.000000  0.000000     1.000
   1.15896  0.12303 -0.05029 -1.18861  0.000000  0.000000  0.000000     1.000
   1.17333  0.13730 -0.05207 -1.18789  0.000000  0.000000  0.000000     1.000
   1.18807  0.15196 -0.05365 -1.18643  0.000000  0.000000  0.000000     1.000
   1.20311  0.16693 -0.05503 -1.18441  0.000000  0.000000  0.000000     1.000
   1.21837  0.18214 -0.05622 -1.18209  0.000000  0.000000  0.000000     1.000
   1.23381  0.19755 -0.05723 -1.17927  0.000000  0.000000  0.000000     1.000
   1.24941  0.21313 -0.05807 -1.17624  0.000000  0.000000  0.000000     1.000
   1.26514  0.22884 -0.05875 -1.17296  0.000000  0.000000  0.000000     1.000
   1.28097  0.24467 -0.05927 -1.16948  0.000000  0.000000  0.000000     1.000
   1.29691  0.26060 -0.05965 -1.16588  0.000000  0.000000  0.000000     1.000
   1.31293  0.27662 -0.05989 -1.16206  0.000000  0.000000  0.000000     1.000
   1.32903  0.29272 -0.06001 -1.15818  0.000000  0.000000  0.000000     1.000
   1.34519  0.30888 -0.06000 -1.15417  0.000000  0.000000  0.000000     1.000
   1.36143  0.32511 -0.05988 -1.15015  0.000000  0.000000  0.000000     1.000
   1.37771  0.34140 -0.05965 -1.14593  0.000000  0.000000  0.000000     1.000
   1.39406  0.35774 -0.05932 -1.14180  0.000000  0.000000  0.000000     1.000
   1.41045  0.37412 -0.05889 -1.13760  0.000000  0.000000  0.000000     1.000
   1.42688  0.39055 -0.05837 -1.13335  0.000000  0.000000  0.000000     1.000
   1.44336  0.40701 -0.05776 -1.12900  0.000000  0.000000  0.000000     1.000
   1.45987  0.42351 -0.05707 -1.12480  0.000000  0.000000  0.000000     1.000
   1.47642  0.44004 -0.05630 -1.12049  0.000000  0.000000  0.000000     1.000
   1.49300  0.45660 -0.05546 -1.11609  0.000000  0.000000  0.000000     1.000
   1.50961  0.47319 -0.05455 -1.11192  0.000000  0.000000  0.000000     1.000
   1.52625  0.48980 -0.05357 -1.10755  0.000000  0.000000  0.000000     1.000
   1.54292  0.50644 -0.05253 -1.10327  0.000000  0.000000  0.000000     1.000
   1.55961  0.52309 -0.05143 -1.09900  0.000000  0.000000  0.000000     1.000
   1.57632  0.53976 -0.05026 -1.09465  0.000000  0.000000  0.000000     1.000
   1.59305  0.55645 -0.04905 -1.09034  0.000000  0.000000  0.000000     1.000
   1.60980  0.57315 -0.04778 -1.08611  0.000000  0.000000  0.000000     1.000
   1.62657  0.58987 -0.04646 -1.08178  0.000000  0.000000  0.000000     1.000
   1.64335  0.60659 -0.04509 -1.07741  0.000000  0.000000  0.000000     1.000
   1.66015  0.62333 -0.04367 -1.07307  0.000000  0.000000  0.000000     1.000
   1.67696  0.64008 -0.04221 -1.06870  0.000000  0.000000  0.000000     1.000
   1.69378  0.65683 -0.04071 -1.06431  0.000000  0.000000  0.000000     1.000
   1.71061  0.67359 -0.03916 -1.05985  0.000000  0.000000  0.000000     1.000
   1.72745  0.69035 -0.03757 -1.05539  0.000000  0.000000  0.000000     1.000
   1.74429  0.70712 -0.03594 -1.05067  0.000000  0.000000  0.000000     1.000
   1.76115  0.72389 -0.03428 -1.04608  0.000000  0.000000  0.000000     1.000
   1.77800  0.74066 -0.03257 -1.04119  0.000000  0.000000  0.000000     1.000
   1.79486  0.75742 -0.03083 -1.03627  0.000000  0.000000  0.000000     1.000
   1.81172  0.77419 -0.02905 -1.03115  0.000000  0.000000  0.000000     1.000
   1.82858  0.79095 -0.02723 -1.02588  0.000000  0.000000  0.000000     1.000
   1.84544  0.80771 -0.02537 -1.02003  0.000000  0.000000  0.000000     1.000
   1.86230  0.82446 -0.02348 -1.01450  0.000000  0.000000  0.000000     1.000
   1.87915  0.84120 -0.02155 -1.00783  0.000000  0.000000  0.000000     1.000
   1.89599  0.85793 -0.01959 -1.00115  0.000000  0.000000  0.000000     1.000
   1.91281  0.87462 -0.01759 -0.99384  0.000000  0.000000  0.000000     1.000
   1.92958  0.89128 -0.01556 -0.98555  0.000000  0.000000  0.000000     1.000
   1.94627  0.90784 -0.01350 -0.97646  0.000000  0.000000  0.000000     1.000
   1.96279  0.92422 -0.01142 -0.96603  0.000000  0.000000  0.000000     1.000
   1.97896  0.94026 -0.00934 -0.95370  0.000000  0.000000  0.000000     1.000
   1.99450  0.95567 -0.00731 -0.93915  0.000000  0.000000  0.000000     1.000
   2.00895  0.96999 -0.00539 -0.92117  0.000000  0.000000  0.000000     1.000
   2.02185  0.98277 -0.00365 -0.89679  0.000000  0.000000  0.000000     1.000
   2.03290  0.99372 -0.00214 -0.86298  0.000000  0.000000  0.000000     1.000
   2.03924  1.00000 -0.00126 -0.76500  0.000000  0.000000  0.000000     1.000
   2.03924  1.00010  0.00000  1.02793  0.046090  0.005988  0.000000     7.697
   2.04558  1.00644 -0.00000  1.02056  0.045097  0.006406  0.000000     7.040
   2.05301  1.01387 -0.00000  1.01076  0.043654  0.006963  0.000000     6.269
   2.06172  1.02258 -0.00000  0.99866  0.041822  0.007656  0.000000     5.463
   2.07194  1.03279 -0.00000  0.98333  0.039556  0.008537  0.000000     4.633
   2.08391  1.04477 -0.00000  0.96317  0.036833  0.009710  0.000000     3.793
   2.09794  1.05880 -0.00000  0.94310  0.033547  0.010888  0.000000     3.081
   2.11440  1.07526 -0.00000  0.92676  0.029781  0.011840  0.000000     2.515
   2.13369  1.09455 -0.00000  0.91666  0.025795  0.012411  0.000000     2.078
   2.15630  1.11716 -0.00000  0.91451  0.021963  0.012526  0.000000     1.753
   2.18282  1.14367 -0.00000  0.91976  0.018651  0.012268  0.000000     1.520
   2.21390  1.17475 -0.00000  0.92969  0.016050  0.011823  0.000000     1.358
   2.25033  1.21119 -0.00000  0.94109  0.014140  0.011357  0.000000     1.245
   2.29305  1.25391 -0.00000  0.95187  0.012781  0.010950  0.000000     1.167
   2.34313  1.30399 -0.00000  0.96118  0.011826  0.010620  0.000000     1.114
   2.40184  1.36269 -0.00000  0.96893  0.011156  0.010359  0.000000     1.077
   2.47066  1.43152 -0.00000  0.97526  0.010684  0.010155  0.000000     1.052
   2.55135  1.51221 -0.00000  0.98039  0.010349  0.009994  0.000000     1.036
   2.64594  1.60680 -0.00000  0.98454  0.010110  0.009867  0.000000     1.025
   2.75683  1.71769 -0.00000  0.98786  0.009937  0.009767  0.000000     1.017
   2.88683  1.84769 -0.00000  0.99052  0.009812  0.009688  0.000000     1.013
   3.03924  2.00010 -0.00000  0.99286  0.009713  0.009619  0.000000     1.010
