#    s        x        y     Ue/Vinf    Dstar     Theta      Cf       H
   0.00000  1.00000  0.00126  1.02793  0.021796  0.002994 -0.000232     7.280
   0.00634  0.99372  0.00214  1.02831  0.021736  0.002985 -0.000323     7.282
   0.01739  0.98277  0.00365  1.02889  0.021411  0.002971 -0.000326     7.207
   0.03029  0.96999  0.00539  1.02957  0.020965  0.002955 -0.000330     7.095
   0.04475  0.95567  0.00731  1.03034  0.020411  0.002937 -0.000334     6.949
   0.06028  0.94026  0.00934  1.03120  0.019775  0.002918 -0.000339     6.777
   0.07646  0.92422  0.01142  1.03215  0.019086  0.002898 -0.000345     6.587
   0.09297  0.90784  0.01350  1.03318  0.018367  0.002876 -0.000352     6.387
   0.10966  0.89128  0.01556  1.03429  0.017636  0.002853 -0.000360     6.181
   0.12644  0.87462  0.01759  1.03550  0.016902  0.002829 -0.000368     5.974
   0.14325  0.85793  0.01959  1.03682  0.016172  0.002804 -0.000377     5.768
   0.16009  0.84120  0.02155  1.03826  0.015455  0.002777 -0.000385     5.565
   0.17694  0.82446  0.02348  1.03983  0.014753  0.002749 -0.000389     5.366
   0.19380  0.80771  0.02537  1.04154  0.014069  0.002719 -0.000392     5.174
   0.21066  0.79095  0.02723  1.04341  0.013408  0.002688 -0.000390     4.988
   0.22752  0.77419  0.02905  1.04544  0.012769  0.002655 -0.000381     4.809
   0.24438  0.75742  0.03083  1.04765  0.012157  0.002621 -0.000363     4.639
   0.26124  0.74066  0.03257  1.05003  0.011571  0.002585 -0.000333     4.477
   0.27810  0.72389  0.03428  1.05260  0.011011  0.002547 -0.000290     4.323
   0.29495  0.70712  0.03594  1.05532  0.010481  0.002508 -0.000233     4.179
   0.31179  0.69035  0.03757  1.05820  0.009977  0.002468 -0.000160     4.042
   0.32863  0.67359  0.03916  1.06126  0.009502  0.002427 -0.000072     3.915
   0.34546  0.65683  0.04071  1.06450  0.009055  0.002384  0.000031     3.798
   0.36228  0.64008  0.04221  1.06793  0.008634  0.002340  0.000147     3.690
   0.37909  0.62333  0.04367  1.07153  0.008239  0.002294  0.000275     3.591
   0.39589  0.60659  0.04509  1.07530  0.007871  0.002247  0.000413     3.502
   0.41267  0.58987  0.04646  1.07921  0.007526  0.002200  0.000561     3.421
   0.42944  0.57315  0.04778  1.08324  0.007203  0.002152  0.000716     3.348
   0.44619  0.55645  0.04905  1.08738  0.006901  0.002103  0.000877     3.282
   0.46292  0.53976  0.05026  1.09160  0.006616  0.002054  0.001045     3.222
   0.47963  0.52309  0.05143  1.09589  0.006348  0.002005  0.001218     3.167
   0.49632  0.50644  0.05253  1.10023  0.006096  0.001955  0.001397     3.118
   0.51299  0.48980  0.05357  1.10461  0.005855  0.001906  0.001581     3.072
   0.52963  0.47319  0.05455  1.10900  0.005629  0.001857  0.001768     3.031
   0.54624  0.45660  0.05546  1.11342  0.005411  0.001808  0.001964     2.993
   0.56282  0.44004  0.05630  1.11783  0.005205  0.001759  0.002162     2.959
   0.57937  0.42351  0.05707  1.12225  0.005005  0.001710  0.002371     2.926
   0.59589  0.40701  0.05776  1.12664  0.004814  0.001662  0.002583     2.897
   0.61236  0.39055  0.05837  1.13103  0.004628  0.001613  0.002809     2.868
   0.62880  0.37412  0.05889  1.13537  0.004449  0.001565  0.003040     2.843
   0.64519  0.35774  0.05932  1.13968  0.004275  0.001517  0.003283     2.818
   0.66153  0.34140  0.05965  1.14396  0.004105  0.001469  0.003540     2.795
   0.67782  0.32511  0.05988  1.14816  0.003940  0.001420  0.003810     2.773
   0.69405  0.30888  0.06000  1.15231  0.003777  0.001372  0.004096     2.753
   0.71022  0.29272  0.06001  1.15636  0.003619  0.001324  0.004400     2.733
   0.72631  0.27662  0.05989  1.16032  0.003463  0.001276  0.004724     2.714
   0.74233  0.26060  0.05965  1.16413  0.003310  0.001227  0.005064     2.697
   0.75827  0.24467  0.05927  1.16783  0.003159  0.001179  0.005438     2.680
   0.77411  0.22884  0.05875  1.17134  0.003009  0.001130  0.005839     2.663
   0.78983  0.21313  0.05807  1.17462  0.002863  0.001081  0.006263     2.649
   0.80543  0.19755  0.05723  1.17774  0.002715  0.001031  0.006750     2.632
   0.82087  0.18214  0.05622  1.18048  0.002570  0.000982  0.007268     2.618
   0.83613  0.16693  0.05503  1.18287  0.002426  0.000931  0.007838     2.604
   0.85117  0.15196  0.05365  1.18485  0.002282  0.000881  0.008480     2.591
   0.86591  0.13730  0.05207  1.18627  0.002138  0.000830  0.009195     2.577
   0.88029  0.12303  0.05029  1.18705  0.001996  0.000778  0.010009     2.564
   0.89417  0.10929  0.04832  1.18699  0.001855  0.000727  0.010919     2.551
   0.90742  0.09622  0.04618  1.18596  0.001716  0.000676  0.011964     2.538
   0.91986  0.08399  0.04389  1.18375  0.001581  0.000626  0.013152     2.525
   0.93132  0.07278  0.04150  1.18014  0.001451  0.000578  0.014484     2.512
   0.94168  0.06271  0.03908  1.17499  0.001328  0.000532  0.015997     2.498
   0.95091  0.05380  0.03667  1.16806  0.001214  0.000489  0.017645     2.485
   0.95903  0.04603  0.03431  1.15929  0.001109  0.000449  0.019465     2.470
   0.96614  0.03929  0.03203  1.14844  0.001014  0.000413  0.021366     2.458
   0.97238  0.03346  0.02983  1.13552  0.000925  0.000379  0.023542     2.442
   0.97787  0.02840  0.02771  1.11982  0.000845  0.000348  0.025784     2.428
   0.98273  0.02399  0.02566  1.10118  0.000771  0.000320  0.028230     2.412
   0.98707  0.02013  0.02367  1.07887  0.000703  0.000293  0.030790     2.397
   0.99097  0.01674  0.02173  1.05226  0.000641  0.000269  0.033429     2.382
   0.99451  0.01376  0.01982  1.02032  0.000582  0.000246  0.036393     2.363
   0.99774  0.01114  0.01793  0.98121  0.000530  0.000226  0.039086     2.346
   1.00071  0.00883  0.01606  0.93410  0.000481  0.000206  0.041540     2.331
   1.00346  0.00682  0.01419  0.87702  0.000436  0.000189  0.043819     2.312
   1.00603  0.00508  0.01231  0.80704  0.000397  0.000173  0.045124     2.294
   1.00843  0.00360  0.01041  0.72296  0.000362  0.000159  0.044679     2.283
   1.01069  0.00238  0.00851  0.62209  0.000330  0.000146  0.043081     2.260
   1.01284  0.00141  0.00659  0.50263  0.000309  0.000137  0.037565     2.251
   1.01488  0.00070  0.00467  0.36881  0.000291  0.000130  0.029577     2.239
   1.01683  0.00025  0.00277  0.22331  0.000281  0.000126  0.018691     2.232
   1.01871  0.00003  0.00091  0.07417  0.000277  0.000124  0.006300     2.230
   1.02053  0.00003 -0.00091 -0.07292  0.000277  0.000124  0.006194     2.230
   1.02241  0.00025 -0.00277 -0.22530  0.000276  0.000124  0.019207     2.229
   1.02436  0.00070 -0.00467 -0.36903  0.000295  0.000131  0.028909     2.250
   1.02641  0.00141 -0.00659 -0.50256  0.000307  0.000137  0.038167     2.239
   1.02855  0.00238 -0.00851 -0.62147  0.000333  0.000147  0.042337     2.269
   1.03081  0.00360 -0.01041 -0.72280  0.000360  0.000158  0.045299     2.274
   1.03322  0.00508 -0.01231 -0.80687  0.000398  0.000173  0.044715     2.300
   1.03578  0.00682 -0.01419 -0.87689  0.000435  0.000189  0.044045     2.309
   1.03853  0.00883 -0.01606 -0.93418  0.000481  0.000206  0.041513     2.332
   1.04150  0.01114 -0.01793 -0.98119  0.000530  0.000226  0.039071     2.347
   1.04473  0.01376 -0.01982 -1.02030  0.000582  0.000246  0.036402     2.363
   1.04827  0.01674 -0.02173 -1.05222  0.000641  0.000269  0.033421     2.382
   1.05217  0.02013 -0.02367 -1.07894  0.000703  0.000293  0.030829     2.396
   1.05651  0.02399 -0.02566 -1.10115  0.000771  0.000320  0.028192     2.413
   1.06138  0.02840 -0.02771 -1.11977  0.000845  0.000348  0.025779     2.428
   1.06687  0.03346 -0.02983 -1.13548  0.000925  0.000379  0.023549     2.442
   1.07310  0.03929 -0.03203 -1.14848  0.001014  0.000413  0.021391     2.457
   1.08022  0.04603 -0.03431 -1.15935  0.001109  0.000449  0.019470     2.470
   1.08834  0.05380 -0.03667 -1.16801  0.001215  0.000489  0.017615     2.486
   1.09756  0.06271 -0.03908 -1.17492  0.001328  0.000532  0.015989     2.498
   1.10792  0.07278 -0.04150 -1.18020  0.001450  0.000577  0.014519     2.511
   1.11939  0.08399 -0.04389 -1.18369  0.001582  0.000626  0.013125     2.526
   1.13182  0.09622 -0.04618 -1.18596  0.001715  0.000676  0.011975     2.538
   1.14507  0.10929 -0.04832 -1.18703  0.001854  0.000727  0.010930     2.551
   1.15896  0.12303 -0.05029 -1.18701  0.001997  0.000778  0.009992     2.565
   1.17333  0.13730 -0.05207 -1.18629  0.002138  0.000830  0.009204     2.577
   1.18807  0.15196 -0.05365 -1.18481  0.002282  0.000881  0.008472     2.591
   1.20311  0.16693 -0.05503 -1.18289  0.002425  0.000931  0.007846     2.604
   1.21837  0.18214 -0.05622 -1.18047  0.002570  0.000982  0.007264     2.618
   1.23381  0.19755 -0.05723 -1.17771  0.002715  0.001031  0.006746     2.633
   1.24941  0.21313 -0.05807 -1.17463  0.002862  0.001081  0.006269     2.648
   1.26514  0.22884 -0.05875 -1.17133  0.003009  0.001130  0.005838     2.663
   1.28097  0.24467 -0.05927 -1.16781  0.003159  0.001179  0.005436     2.680
   1.29691  0.26060 -0.05965 -1.16414  0.003309  0.001227  0.005069     2.696
   1.31293  0.27662 -0.05989 -1.16030  0.003463  0.001276  0.004721     2.715
   1.32903  0.29272 -0.06001 -1.15635  0.003619  0.001324  0.004399     2.733
   1.34519  0.30888 -0.06000 -1.15230  0.003777  0.001372  0.004096     2.753
   1.36143  0.32511 -0.05988 -1.14816  0.003939  0.001420  0.003811     2.773
   1.37771  0.34140 -0.05965 -1.14395  0.004105  0.001469  0.003540     2.795
   1.39406  0.35774 -0.05932 -1.13968  0.004275  0.001517  0.003284     2.818
   1.41045  0.37412 -0.05889 -1.13538  0.004448  0.001565  0.003042     2.842
   1.42688  0.39055 -0.05837 -1.13102  0.004628  0.001613  0.002808     2.869
   1.44336  0.40701 -0.05776 -1.12664  0.004814  0.001662  0.002583     2.897
   1.45987  0.42351 -0.05707 -1.12224  0.005005  0.001710  0.002370     2.926
   1.47642  0.44004 -0.05630 -1.11783  0.005204  0.001759  0.002163     2.959
   1.49300  0.45660 -0.05546 -1.11340  0.005413  0.001808  0.001961     2.994
   1.50961  0.47319 -0.05455 -1.10900  0.005628  0.001857  0.001769     3.031
   1.52625  0.48980 -0.05357 -1.10460  0.005856  0.001906  0.001580     3.072
   1.54292  0.50644 -0.05253 -1.10022  0.006096  0.001955  0.001397     3.118
   1.55961  0.52309 -0.05143 -1.09589  0.006348  0.002005  0.001219     3.167
   1.57632  0.53976 -0.05026 -1.09160  0.006616  0.002054  0.001045     3.221
   1.59305  0.55645 -0.04905 -1.08737  0.006901  0.002103  0.000877     3.282
   1.60980  0.57315 -0.04778 -1.08324  0.007203  0.002152  0.000716     3.348
   1.62657  0.58987 -0.04646 -1.07920  0.007526  0.002200  0.000561     3.421
   1.64335  0.60659 -0.04509 -1.07529  0.007872  0.002247  0.000413     3.503
   1.66015  0.62333 -0.04367 -1.07152  0.008241  0.002294  0.000274     3.592
   1.67696  0.64008 -0.04221 -1.06792  0.008635  0.002340  0.000147     3.691
   1.69378  0.65683 -0.04071 -1.06449  0.009055  0.002384  0.000031     3.798
   1.71061  0.67359 -0.03916 -1.06125  0.009502  0.002427 -0.000072     3.916
   1.72745  0.69035 -0.03757 -1.05819  0.009977  0.002468 -0.000160     4.042
   1.74429  0.70712 -0.03594 -1.05531  0.010482  0.002508 -0.000233     4.179
   1.76115  0.72389 -0.03428 -1.05259  0.011012  0.002547 -0.000290     4.324
   1.77800  0.74066 -0.03257 -1.05003  0.011572  0.002585 -0.000333     4.477
   1.79486  0.75742 -0.03083 -1.04764  0.012158  0.002621 -0.000363     4.639
   1.81172  0.77419 -0.02905 -1.04544  0.012770  0.002655 -0.000381     4.810
   1.82858  0.79095 -0.02723 -1.04340  0.013408  0.002688 -0.000390     4.988
   1.84544  0.80771 -0.02537 -1.04154  0.014072  0.002719 -0.000392     5.175
   1.86230  0.82446 -0.02348 -1.03982  0.014752  0.002749 -0.000389     5.366
   1.87915  0.84120 -0.02155 -1.03825  0.015458  0.002777 -0.000385     5.566
   1.89599  0.85793 -0.01959 -1.03682  0.016175  0.002804 -0.000377     5.769
   1.91281  0.87462 -0.01759 -1.03550  0.016903  0.002829 -0.000368     5.975
   1.92958  0.89128 -0.01556 -1.03429  0.017639  0.002853 -0.000360     6.182
   1.94627  0.90784 -0.01350 -1.03317  0.018370  0.002876 -0.000352     6.388
   1.96279  0.92422 -0.01142 -1.03215  0.019089  0.002898 -0.000345     6.588
   1.97896  0.94026 -0.00934 -1.03120  0.019779  0.002918 -0.000339     6.778
   1.99450  0.95567 -0.00731 -1.03034  0.020414  0.002937 -0.000334     6.950
   2.00895  0.96999 -0.00539 -1.02957  0.020968  0.002955 -0.000330     7.096
   2.02185  0.98277 -0.00365 -1.02889  0.021415  0.002971 -0.000326     7.208
   2.03290  0.99372 -0.00214 -1.02831  0.021739  0.002985 -0.000323     7.283
   2.03924  1.00000 -0.00126 -1.02793  0.021799  0.002994 -0.000232     7.281
   2.03924  1.00010  0.00000  1.02793  0.046090  0.005988  0.000000     7.697
   2.04558  1.00644 -0.00000  1.02056  0.045097  0.006406  0.000000     7.040
   2.05301  1.01387 -0.00000  1.01076  0.043654  0.006963  0.000000     6.269
   2.06172  1.02258 -0.00000  0.99866  0.041822  0.007656  0.000000     5.463
   2.07194  1.03279 -0.00000  0.98333  0.039556  0.008537  0.000000     4.633
   2.08391  1.04477 -0.00000  0.96317  0.036833  0.009710  0.000000     3.793
   2.09794  1.05880 -0.00000  0.94310  0.033547  0.010888  0.000000     3.081
   2.11440  1.07526 -0.00000  0.92676  0.029781  0.011840  0.000000     2.515
   2.13369  1.09455 -0.00000  0.91666  0.025795  0.012411  0.000000     2.078
   2.15630  1.11716 -0.00000  0.91451  0.021963  0.012526  0.000000     1.753
   2.18282  1.14367 -0.00000  0.91976  0.018651  0.012268  0.000000     1.520
   2.21390  1.17475 -0.00000  0.92969  0.016050  0.011823  0.000000     1.358
   2.25033  1.21119 -0.00000  0.94109  0.014140  0.011357  0.000000     1.245
   2.29305  1.25391 -0.00000  0.95187  0.012781  0.010950  0.000000     1.167
   2.34313  1.30399 -0.00000  0.96118  0.011826  0.010620  0.000000     1.114
   2.40184  1.36269 -0.00000  0.96893  0.011156  0.010359  0.000000     1.077
   2.47066  1.43152 -0.00000  0.97526  0.010684  0.010155  0.000000     1.052
   2.55135  1.51221 -0.00000  0.98039  0.010349  0.009994  0.000000     1.036
   2.64594  1.60680 -0.00000  0.98454  0.010110  0.009867  0.000000     1.025
   2.75683  1.71769 -0.00000  0.98786  0.009937  0.009767  0.000000     1.017
   2.88683  1.84769 -0.00000  0.99052  0.009812  0.009688  0.000000     1.013
   3.03924  2.00010 -0.00000  0.99286  0.009713  0.009619  0.000000     1.010
